#	zp	(zp filter with CCD+Optical+Transmission from MegaCam)
  7000.000      0.00 
  7020.000      0.002 
  7040.000      0.002 
  7060.000      0.003 
  7080.000      0.003 
  7100.000      0.004 
  7120.000      0.004 
  7140.000      0.004 
  7160.000      0.005 
  7180.000      0.005 
  7200.000      0.005 
  7220.000      0.005 
  7240.000      0.005 
  7260.000      0.005 
  7280.000      0.005 
  7300.000      0.005 
  7320.000      0.005 
  7340.000      0.005 
  7360.000      0.006 
  7380.000      0.006 
  7400.000      0.007 
  7420.000      0.007 
  7440.000      0.007 
  7460.000      0.007 
  7480.000      0.007 
  7500.000      0.008 
  7520.000      0.008 
  7540.000      0.009 
  7560.000      0.009 
  7580.000      0.010 
  7600.000      0.011 
  7620.000      0.012 
  7640.000      0.013 
  7660.000      0.014 
  7680.000      0.015 
  7700.000      0.016 
  7720.000      0.018 
  7740.000      0.021 
  7760.000      0.024 
  7780.000      0.029 
  7800.000      0.033 
  7820.000      0.039 
  7840.000      0.047 
  7860.000      0.057 
  7880.000      0.069 
  7900.000      0.083 
  7920.000      0.102 
  7940.000      0.127 
  7960.000      0.161 
  7980.000      0.205 
  8000.000      0.264 
  8020.000      0.342 
  8040.000      0.449 
  8060.000      0.601 
  8080.000      0.814 
  8100.000      1.118 
  8120.000      1.551 
  8140.000      2.177 
  8160.000      3.078 
  8180.000      4.343 
  8200.000      6.095 
  8220.000      8.457 
  8240.000     11.482 
  8260.000     14.992 
  8280.000     18.620 
  8300.000     21.988 
  8320.000     24.673 
  8340.000     26.655 
  8360.000     28.096 
  8380.000     28.861 
  8400.000     29.151 
  8420.000     29.146 
  8440.000     28.894 
  8460.000     28.562 
  8480.000     28.229 
  8500.000     27.996 
  8520.000     27.669 
  8540.000     27.280 
  8560.000     27.026 
  8580.000     26.660 
  8600.000     26.297 
  8620.000     25.996 
  8640.000     25.586 
  8660.000     25.235 
  8680.000     24.828 
  8700.000     24.373 
  8720.000     23.847 
  8740.000     23.275 
  8760.000     22.726 
  8780.000     22.259 
  8800.000     21.757 
  8820.000     21.311 
  8840.000     20.925 
  8860.000     20.529 
  8880.000     20.113 
  8900.000     19.726 
  8920.000     19.294 
  8940.000     18.918 
  8960.000     18.565 
  8980.000     18.201 
  9000.000     17.817 
  9020.000     17.357 
  9040.000     16.933 
  9060.000     16.471 
  9080.000     16.049 
  9100.000     15.603 
  9120.000     15.309 
  9140.000     14.986 
  9160.000     14.641 
  9180.000     14.345 
  9200.000     14.010 
  9220.000     13.556 
  9240.000     13.091 
  9260.000     12.623 
  9280.000     12.173 
  9300.000     11.724 
  9320.000     11.424 
  9340.000     11.136 
  9360.000     10.847 
  9380.000     10.583 
  9400.000     10.321 
  9420.000     10.041 
  9440.000      9.771 
  9460.000      9.496 
  9480.000      9.235 
  9500.000      8.990 
  9520.000      8.733 
  9540.000      8.486 
  9560.000      8.221 
  9580.000      7.956 
  9600.000      7.699 
  9620.000      7.433 
  9640.000      7.172 
  9660.000      6.897 
  9680.000      6.616 
  9700.000      6.335 
  9720.000      6.189 
  9740.000      6.042 
  9760.000      5.891 
  9780.000      5.740 
  9800.000      5.589 
  9820.000      5.296 
  9840.000      5.007 
  9860.000      4.716 
  9880.000      4.420 
  9900.000      4.129 
  9920.000      3.971 
  9940.000      3.817 
  9960.000      3.667 
  9980.000      3.517 
 10000.000      3.367 
 10020.000      3.219 
 10040.000      3.075 
 10060.000      2.928 
 10080.000      2.784 
 10100.000      2.641 
 10120.000      2.498 
 10140.000      2.360 
 10160.000      2.223 
 10180.000      2.088 
 10200.000      1.954 
 10220.000      1.821 
 10240.000      1.689 
 10260.000      1.557 
 10280.000      1.426 
 10300.000      1.295 
 10320.000      1.294 
 10340.000      1.293 
 10360.000      1.292 
 10380.000      1.291 
 10400.000      1.290 
 10420.000      1.160 
 10440.000      1.031 
 10460.000      0.901 
 10480.000      0.772 
 10500.000      0.643 
 10520.000      0.616 
 10540.000      0.589 
 10560.000      0.563 
 10580.000      0.537 
 10600.000      0.510 
 10620.000      0.484 
 10640.000      0.457 
 10660.000      0.431 
 10680.000      0.404 
 10700.000      0.378 
 10720.000      0.352 
 10740.000      0.327 
 10760.000      0.301 
 10780.000      0.275 
 10800.000      0.250 
 10820.000      0.224 
 10840.000      0.198 
 10860.000      0.173 
 10880.000      0.147 
 10900.000      0.122 
 10920.000      0.097 
 10940.000      0.073 
 10960.000      0.048 
 10980.000      0.024 
 11000.000      0.000 
