#	ip	(ip filter with CCD+Optical+Transmission from MegaCam)
  6000.000      0.00 
  6020.000      0.002 
  6040.000      0.002 
  6060.000      0.002 
  6080.000      0.002 
  6100.000      0.002 
  6120.000      0.002 
  6140.000      0.002 
  6160.000      0.002 
  6180.000      0.002 
  6200.000      0.002 
  6220.000      0.002 
  6240.000      0.002 
  6260.000      0.003 
  6280.000      0.003 
  6300.000      0.005 
  6320.000      0.006 
  6340.000      0.007 
  6360.000      0.008 
  6380.000      0.009 
  6400.000      0.011 
  6420.000      0.014 
  6440.000      0.016 
  6460.000      0.020 
  6480.000      0.024 
  6500.000      0.030 
  6520.000      0.038 
  6540.000      0.046 
  6560.000      0.056 
  6580.000      0.069 
  6600.000      0.085 
  6620.000      0.107 
  6640.000      0.134 
  6660.000      0.169 
  6680.000      0.215 
  6700.000      0.273 
  6720.000      0.351 
  6740.000      0.455 
  6760.000      0.594 
  6780.000      0.781 
  6800.000      1.032 
  6820.000      1.374 
  6840.000      1.846 
  6860.000      2.500 
  6880.000      3.400 
  6900.000      4.641 
  6920.000      6.327 
  6940.000      8.579 
  6960.000     11.497 
  6980.000     15.133 
  7000.000     19.431 
  7020.000     24.255 
  7040.000     29.371 
  7060.000     34.438 
  7080.000     39.107 
  7100.000     43.058 
  7120.000     46.106 
  7140.000     48.213 
  7160.000     49.510 
  7180.000     50.201 
  7200.000     50.455 
  7220.000     50.454 
  7240.000     50.282 
  7260.000     50.032 
  7280.000     49.776 
  7300.000     49.537 
  7320.000     49.341 
  7340.000     49.197 
  7360.000     49.091 
  7380.000     48.998 
  7400.000     48.900 
  7420.000     48.640 
  7440.000     48.413 
  7460.000     48.151 
  7480.000     47.851 
  7500.000     47.510 
  7520.000     47.155 
  7540.000     46.791 
  7560.000     46.372 
  7580.000     45.952 
  7600.000     45.509 
  7620.000     45.119 
  7640.000     44.772 
  7660.000     44.436 
  7680.000     44.138 
  7700.000     43.887 
  7720.000     43.689 
  7740.000     43.546 
  7760.000     43.474 
  7780.000     43.414 
  7800.000     43.342 
  7820.000     43.137 
  7840.000     42.917 
  7860.000     42.648 
  7880.000     42.350 
  7900.000     41.970 
  7920.000     41.538 
  7940.000     41.056 
  7960.000     40.518 
  7980.000     39.907 
  8000.000     39.320 
  8020.000     38.889 
  8040.000     38.480 
  8060.000     38.117 
  8080.000     37.793 
  8100.000     37.518 
  8120.000     37.136 
  8140.000     36.766 
  8160.000     36.347 
  8180.000     35.829 
  8200.000     35.231 
  8220.000     34.517 
  8240.000     33.648 
  8260.000     32.655 
  8280.000     31.431 
  8300.000     30.207 
  8320.000     28.962 
  8340.000     27.828 
  8360.000     26.880 
  8380.000     25.807 
  8400.000     24.784 
  8420.000     23.803 
  8440.000     22.688 
  8460.000     21.520 
  8480.000     20.008 
  8500.000     18.150 
  8520.000     16.012 
  8540.000     13.675 
  8560.000     11.348 
  8580.000      9.073 
  8600.000      7.037 
  8620.000      5.289 
  8640.000      3.856 
  8660.000      2.754 
  8680.000      1.885 
  8700.000      1.314 
  8720.000      0.942 
  8740.000      0.676 
  8760.000      0.578 
  8780.000      0.469 
  8800.000      0.333 
  8820.000      0.275 
  8840.000      0.209 
  8860.000      0.128 
  8880.000      0.095 
  8900.000      0.079 
  8920.000      0.079 
  8940.000      0.077 
  8960.000      0.086 
  8980.000      0.083 
  9000.000      0.083 
  9020.000      0.102 
  9040.000      0.085 
  9060.000      0.078 
  9080.000      0.065 
  9100.000      0.049 
  9120.000      0.040 
  9140.000      0.025 
  9160.000      0.012 
  9180.000      0.016 
  9200.000      0.019 
  9220.000      0.018 
  9240.000      0.026 
  9260.000      0.025 
  9280.000      0.025 
  9300.000      0.038 
  9320.000      0.030 
  9340.000      0.030 
  9360.000      0.026 
  9380.000      0.019 
  9400.000      0.017 
  9420.000      0.018 
  9440.000      0.019 
  9460.000      0.010 
  9480.000      0.011 
  9500.000      0.006 
  9520.000      0.002 
  9540.000      0.004 
  9560.000      0.007 
  9580.000      0.008 
  9600.000      0.010 
  9620.000      0.011 
  9640.000      0.012 
  9660.000      0.014 
  9680.000      0.014 
  9700.000      0.013 
  9720.000      0.009 
  9740.000      0.007 
  9760.000      0.007 
  9780.000      0.006 
  9800.000      0.005 
  9820.000      0.006 
  9840.000      0.003 
  9860.000      0.003 
  9880.000      0.003 
  9900.000      0.004 
  9920.000      0.003 
  9940.000      0.004 
  9960.000      0.002 
  9980.000      0.002 
 10000.000      0.00
