#	rp	(rp filter with CCD+Optical+Transmission from MegaCam)
  3800.000      0.00 
  3820.000      0.006 
  3840.000      0.012 
  3860.000      0.023 
  3880.000      0.039 
  3900.000      0.060 
  3920.000      0.080 
  3940.000      0.099 
  3960.000      0.119 
  3980.000      0.141 
  4000.000      0.168 
  4020.000      0.199 
  4040.000      0.230 
  4060.000      0.261 
  4080.000      0.288 
  4100.000      0.312 
  4120.000      0.327 
  4140.000      0.337 
  4160.000      0.336 
  4180.000      0.329 
  4200.000      0.316 
  4220.000      0.297 
  4240.000      0.281 
  4260.000      0.264 
  4280.000      0.249 
  4300.000      0.237 
  4320.000      0.230 
  4340.000      0.230 
  4360.000      0.234 
  4380.000      0.233 
  4400.000      0.226 
  4420.000      0.218 
  4440.000      0.215 
  4460.000      0.221 
  4480.000      0.226 
  4500.000      0.225 
  4520.000      0.218 
  4540.000      0.214 
  4560.000      0.221 
  4580.000      0.238 
  4600.000      0.258 
  4620.000      0.271 
  4640.000      0.275 
  4660.000      0.275 
  4680.000      0.279 
  4700.000      0.287 
  4720.000      0.295 
  4740.000      0.300 
  4760.000      0.301 
  4780.000      0.302 
  4800.000      0.304 
  4820.000      0.308 
  4840.000      0.307 
  4860.000      0.296 
  4880.000      0.276 
  4900.000      0.252 
  4920.000      0.232 
  4940.000      0.215 
  4960.000      0.204 
  4980.000      0.193 
  5000.000      0.181 
  5020.000      0.168 
  5040.000      0.158 
  5060.000      0.148 
  5080.000      0.141 
  5100.000      0.134 
  5120.000      0.128 
  5140.000      0.122 
  5160.000      0.118 
  5180.000      0.116 
  5200.000      0.116 
  5220.000      0.119 
  5240.000      0.127 
  5260.000      0.137 
  5280.000      0.153 
  5300.000      0.175 
  5320.000      0.205 
  5340.000      0.245 
  5360.000      0.298 
  5380.000      0.373 
  5400.000      0.477 
  5420.000      0.629 
  5440.000      0.855 
  5460.000      1.194 
  5480.000      1.698 
  5500.000      2.434 
  5520.000      3.476 
  5540.000      4.919 
  5560.000      6.847 
  5580.000      9.335 
  5600.000     12.435 
  5620.000     16.199 
  5640.000     20.553 
  5660.000     25.384 
  5680.000     30.457 
  5700.000     35.381 
  5720.000     39.641 
  5740.000     42.939 
  5760.000     45.059 
  5780.000     45.991 
  5800.000     45.977 
  5820.000     45.520 
  5840.000     44.928 
  5860.000     44.505 
  5880.000     44.453 
  5900.000     44.709 
  5920.000     45.130 
  5940.000     45.577 
  5960.000     45.919 
  5980.000     46.188 
  6000.000     46.477 
  6020.000     46.796 
  6040.000     47.315 
  6060.000     48.010 
  6080.000     48.835 
  6100.000     49.681 
  6120.000     50.594 
  6140.000     51.354 
  6160.000     51.907 
  6180.000     52.287 
  6200.000     52.605 
  6220.000     52.926 
  6240.000     53.299 
  6260.000     53.722 
  6280.000     54.102 
  6300.000     54.413 
  6320.000     54.516 
  6340.000     54.495 
  6360.000     54.376 
  6380.000     54.153 
  6400.000     53.848 
  6420.000     53.570 
  6440.000     53.224 
  6460.000     52.827 
  6480.000     52.436 
  6500.000     51.998 
  6520.000     51.360 
  6540.000     50.538 
  6560.000     49.421 
  6580.000     48.012 
  6600.000     46.310 
  6620.000     44.481 
  6640.000     42.528 
  6660.000     40.614 
  6680.000     38.944 
  6700.000     37.702 
  6720.000     36.971 
  6740.000     36.935 
  6760.000     37.635 
  6780.000     39.037 
  6800.000     40.681 
  6820.000     41.599 
  6840.000     40.524 
  6860.000     36.573 
  6880.000     29.962 
  6900.000     21.950 
  6920.000     14.304 
  6940.000      8.368 
  6960.000      4.520 
  6980.000      2.393 
  7000.000      1.324 
  7020.000      0.787 
  7040.000      0.496 
  7060.000      0.324 
  7080.000      0.218 
  7100.000      0.151 
  7120.000      0.107 
  7140.000      0.079 
  7160.000      0.059 
  7180.000      0.046 
  7200.000      0.037 
  7220.000      0.030 
  7240.000      0.025 
  7260.000      0.021 
  7280.000      0.018 
  7300.000      0.016 
  7320.000      0.013 
  7340.000      0.013 
  7360.000      0.011 
  7380.000      0.010 
  7400.000      0.009 
  7420.000      0.009 
  7440.000      0.009 
  7460.000      0.008 
  7480.000      0.007 
  7500.000      0.007 
  7520.000      0.007 
  7540.000      0.007 
  7560.000      0.007 
  7580.000      0.007 
  7600.000      0.007 
  7620.000      0.007 
  7640.000      0.007 
  7660.000      0.006 
  7680.000      0.005 
  7700.000      0.004 
  7720.000      0.004 
  7740.000      0.004 
  7760.000      0.004 
  7780.000      0.004 
  7800.000      0.004 
  7820.000      0.004 
  7840.000      0.004 
  7860.000      0.005 
  7880.000      0.005 
  7900.000      0.005 
  7920.000      0.005 
  7940.000      0.004 
  7960.000      0.004 
  7980.000      0.004 
  8000.000      0.004 
  8020.000      0.004 
  8040.000      0.004 
  8060.000      0.004 
  8080.000      0.004 
  8100.000      0.004 
  8120.000      0.004 
  8140.000      0.004 
  8160.000      0.004 
  8180.000      0.005 
  8200.000      0.00
