#	gp	(gp filter with CCD+Optical+Transmission from MegaCam)
  3660.000      0.00 
  3680.000      0.008 
  3700.000      0.013 
  3720.000      0.023 
  3740.000      0.040 
  3760.000      0.064 
  3780.000      0.093 
  3800.000      0.125 
  3820.000      0.158 
  3840.000      0.192 
  3860.000      0.231 
  3880.000      0.277 
  3900.000      0.330 
  3920.000      0.394 
  3940.000      0.473 
  3960.000      0.572 
  3980.000      0.704 
  4000.000      0.901 
  4020.000      1.255 
  4040.000      1.936 
  4060.000      3.268 
  4080.000      5.881 
  4100.000     10.431 
  4120.000     17.247 
  4140.000     26.083 
  4160.000     35.520 
  4180.000     43.842 
  4200.000     49.707 
  4220.000     52.909 
  4240.000     54.200 
  4260.000     54.727 
  4280.000     55.327 
  4300.000     56.082 
  4320.000     56.533 
  4340.000     56.645 
  4360.000     56.446 
  4380.000     56.335 
  4400.000     56.519 
  4420.000     57.073 
  4440.000     57.712 
  4460.000     58.170 
  4480.000     58.401 
  4500.000     58.427 
  4520.000     58.484 
  4540.000     58.792 
  4560.000     59.396 
  4580.000     60.155 
  4600.000     60.824 
  4620.000     61.192 
  4640.000     61.208 
  4660.000     60.906 
  4680.000     60.451 
  4700.000     60.140 
  4720.000     59.914 
  4740.000     59.987 
  4760.000     60.325 
  4780.000     60.782 
  4800.000     61.179 
  4820.000     61.544 
  4840.000     61.678 
  4860.000     61.655 
  4880.000     61.598 
  4900.000     61.558 
  4920.000     61.483 
  4940.000     61.160 
  4960.000     60.406 
  4980.000     59.248 
  5000.000     58.010 
  5020.000     56.892 
  5040.000     56.269 
  5060.000     55.933 
  5080.000     55.574 
  5100.000     55.012 
  5120.000     54.317 
  5140.000     53.490 
  5160.000     52.790 
  5180.000     52.371 
  5200.000     52.362 
  5220.000     52.694 
  5240.000     53.297 
  5260.000     53.828 
  5280.000     53.841 
  5300.000     53.282 
  5320.000     52.534 
  5340.000     51.870 
  5360.000     51.750 
  5380.000     52.014 
  5400.000     52.166 
  5420.000     51.665 
  5440.000     50.119 
  5460.000     47.655 
  5480.000     44.799 
  5500.000     42.179 
  5520.000     39.977 
  5540.000     38.072 
  5560.000     35.892 
  5580.000     32.928 
  5600.000     28.995 
  5620.000     24.292 
  5640.000     19.169 
  5660.000     14.185 
  5680.000      9.863 
  5700.000      6.456 
  5720.000      4.020 
  5740.000      2.430 
  5760.000      1.434 
  5780.000      0.825 
  5800.000      0.472 
  5820.000      0.277 
  5840.000      0.166 
  5860.000      0.105 
  5880.000      0.075 
  5900.000      0.062 
  5920.000      0.058 
  5940.000      0.057 
  5960.000      0.055 
  5980.000      0.052 
  6000.000      0.045 
  6020.000      0.036 
  6040.000      0.025 
  6060.000      0.016 
  6080.000      0.010 
  6100.000      0.006 
  6120.000      0.004 
  6140.000      0.004 
  6160.000      0.004 
  6180.000      0.004 
  6200.000      0.005 
  6220.000      0.008 
  6240.000      0.012 
  6260.000      0.017 
  6280.000      0.021 
  6300.000      0.022 
  6320.000      0.019 
  6340.000      0.014 
  6360.000      0.009 
  6380.000      0.005 
  6400.000      0.004 
  6420.000      0.003 
  6440.000      0.003 
  6460.000      0.002 
  6480.000      0.002 
  6500.000      0.003 
  6520.000      0.004 
  6540.000      0.009 
  6560.000      0.014 
  6580.000      0.022 
  6600.000      0.028 
  6620.000      0.028 
  6640.000      0.024 
  6660.000      0.016 
  6680.000      0.008 
  6700.000      0.004 
  6720.000      0.00
